Time(s),CH1V,CH2V
-2.500000e-04,4.969600e+00,1.110133e+00
-2.495000e-04,4.976000e+00,1.075733e+00
-2.490000e-04,4.960800e+00,1.067200e+00
-2.485000e-04,4.945333e+00,1.033067e+00
-2.480000e-04,4.907733e+00,9.818667e-01
-2.475000e-04,4.949600e+00,9.712000e-01
-2.470000e-04,4.987200e+00,9.349334e-01
-2.465000e-04,4.954134e+00,9.136000e-01
-2.460000e-04,4.727200e+00,9.008000e-01
-2.455000e-04,4.300000e+00,8.666667e-01
-2.450000e-04,3.736267e+00,8.581333e-01
-2.445000e-04,2.978933e+00,8.109334e-01
-2.440000e-04,2.225600e+00,7.597333e-01
-2.435000e-04,1.655467e+00,7.874667e-01
-2.430000e-04,1.283200e+00,7.938667e-01
-2.425000e-04,9.288000e-01,8.066667e-01
-2.420000e-04,6.973333e-01,8.368000e-01
-2.415000e-04,5.016000e-01,8.837333e-01
-2.410000e-04,3.848000e-01,9.093333e-01
-2.405000e-04,2.525333e-01,9.349334e-01
-2.400000e-04,1.381333e-01,9.392000e-01
-2.395000e-04,1.138667e-01,9.925333e-01
-2.390000e-04,8.533333e-02,1.028800e+00
-2.385000e-04,5.653333e-02,1.069333e+00
-2.380000e-04,1.920000e-02,1.097333e+00
-2.375000e-04,1.600000e-03,1.146400e+00
-2.370000e-04,1.040000e-02,1.208267e+00
-2.365000e-04,-3.813333e-02,1.231733e+00
-2.360000e-04,-5.120000e-02,1.268000e+00
-2.355000e-04,-4.693333e-02,1.280800e+00
-2.350000e-04,-2.480000e-02,1.323467e+00
-2.345000e-04,-9.333333e-03,1.377067e+00
-2.340000e-04,-5.120000e-02,1.409067e+00
-2.335000e-04,-2.933333e-02,1.460267e+00
-2.330000e-04,-2.933333e-02,1.511467e+00
-2.325000e-04,-7.333333e-02,1.524267e+00
-2.320000e-04,-9.520000e-02,1.558400e+00
-2.315000e-04,-7.120000e-02,1.601067e+00
-2.310000e-04,-4.240000e-02,1.626667e+00
-2.305000e-04,-3.813333e-02,1.695200e+00
-2.300000e-04,-4.240000e-02,1.720800e+00
-2.295000e-04,-4.026667e-02,1.759200e+00
-2.290000e-04,-2.480000e-02,1.814667e+00
-2.285000e-04,-5.786667e-02,1.838133e+00
-2.280000e-04,-8.640000e-02,1.870133e+00
-2.275000e-04,-4.693333e-02,1.908533e+00
-2.270000e-04,-3.360000e-02,1.964267e+00
-2.265000e-04,-2.933333e-02,1.994133e+00
-2.260000e-04,-2.933333e-02,2.028267e+00
-2.255000e-04,-4.026667e-02,2.085867e+00
-2.250000e-04,-1.600000e-02,2.105067e+00
-2.245000e-04,-6.453333e-02,2.158400e+00
-2.240000e-04,-8.213334e-02,2.186133e+00
-2.235000e-04,-4.906667e-02,2.226933e+00
-2.230000e-04,-1.600000e-02,2.258933e+00
-2.225000e-04,-1.386667e-02,2.299467e+00
-2.220000e-04,-2.933333e-02,2.322933e+00
-2.215000e-04,-3.573333e-02,2.391200e+00
-2.210000e-04,-1.600000e-02,2.446667e+00
-2.205000e-04,-5.573333e-02,2.466133e+00
-2.200000e-04,-7.760000e-02,2.498133e+00
-2.195000e-04,-4.906667e-02,2.528000e+00
-2.190000e-04,-2.053333e-02,2.562133e+00
-2.185000e-04,-2.693333e-02,2.602667e+00
-2.180000e-04,-5.120000e-02,2.630400e+00
-2.175000e-04,-2.266667e-02,2.677333e+00
-2.170000e-04,-1.600000e-02,2.741600e+00
-2.165000e-04,-4.240000e-02,2.769333e+00
-2.160000e-04,-6.880000e-02,2.788533e+00
-2.155000e-04,-4.026667e-02,2.829067e+00
-2.150000e-04,-1.600000e-02,2.873867e+00
-2.145000e-04,-2.053333e-02,2.912267e+00
-2.140000e-04,-2.480000e-02,2.946400e+00
-2.135000e-04,-2.693333e-02,2.997600e+00
-2.130000e-04,-1.600000e-02,3.036267e+00
-2.125000e-04,-3.813333e-02,3.074667e+00
-2.120000e-04,-6.000000e-02,3.100267e+00
-2.115000e-04,-4.693333e-02,3.142933e+00
-2.110000e-04,-1.173333e-02,3.185600e+00
-2.105000e-04,-3.146667e-02,3.217600e+00
-2.100000e-04,-2.933333e-02,3.245333e+00
-2.095000e-04,-1.600000e-02,3.281867e+00
-2.090000e-04,-2.933333e-02,3.339467e+00
-2.085000e-04,-2.693333e-02,3.377867e+00
-2.080000e-04,-7.333333e-02,3.377867e+00
-2.075000e-04,-3.573333e-02,3.441867e+00
-2.070000e-04,-1.600000e-02,3.467467e+00
-2.065000e-04,-2.266667e-02,3.493067e+00
-2.060000e-04,-2.933333e-02,3.544267e+00
-2.055000e-04,-1.600000e-02,3.602133e+00
-2.050000e-04,-1.600000e-02,3.629867e+00
-2.045000e-04,-3.360000e-02,3.670400e+00
-2.040000e-04,-6.453333e-02,3.685333e+00
-2.035000e-04,-3.146667e-02,3.738667e+00
-2.030000e-04,-7.200000e-03,3.774933e+00
-2.025000e-04,1.050667e-01,3.809067e+00
-2.020000e-04,4.154667e-01,3.847733e+00
-2.015000e-04,8.648000e-01,3.884000e+00
-2.010000e-04,1.498933e+00,3.933067e+00
-2.005000e-04,2.236800e+00,3.933067e+00
-2.000000e-04,2.895200e+00,3.954400e+00
-1.995000e-04,3.441333e+00,3.933067e+00
-1.990000e-04,3.872800e+00,3.928800e+00
-1.985000e-04,4.141600e+00,3.907467e+00
-1.980000e-04,4.374933e+00,3.898933e+00
-1.975000e-04,4.520267e+00,3.896800e+00
-1.970000e-04,4.639200e+00,3.852000e+00
-1.965000e-04,4.709600e+00,3.828533e+00
-1.960000e-04,4.753600e+00,3.817600e+00
-1.955000e-04,4.828533e+00,3.783467e+00
-1.950000e-04,4.916533e+00,3.740800e+00
-1.945000e-04,4.929867e+00,3.710933e+00
-1.940000e-04,4.947467e+00,3.689600e+00
-1.935000e-04,4.952000e+00,3.659733e+00
-1.930000e-04,4.982666e+00,3.659733e+00
-1.925000e-04,4.956267e+00,3.610667e+00
-1.920000e-04,4.938667e+00,3.552800e+00
-1.915000e-04,4.976000e+00,3.540000e+00
-1.910000e-04,5.009067e+00,3.505867e+00
-1.905000e-04,4.998133e+00,3.478133e+00
-1.900000e-04,4.978400e+00,3.463200e+00
-1.895000e-04,5.004800e+00,3.431200e+00
-1.890000e-04,4.991467e+00,3.399200e+00
-1.885000e-04,4.973867e+00,3.358667e+00
-1.880000e-04,4.938667e+00,3.322400e+00
-1.875000e-04,4.978400e+00,3.296800e+00
-1.870000e-04,5.022400e+00,3.253867e+00
-1.865000e-04,4.984800e+00,3.262400e+00
-1.860000e-04,4.982666e+00,3.224000e+00
-1.855000e-04,4.998133e+00,3.192000e+00
-1.850000e-04,4.987200e+00,3.172800e+00
-1.845000e-04,4.969600e+00,3.142933e+00
-1.840000e-04,4.925333e+00,3.078933e+00
-1.835000e-04,4.971734e+00,3.061867e+00
-1.830000e-04,5.009067e+00,3.032000e+00
-1.825000e-04,4.987200e+00,2.997600e+00
-1.820000e-04,4.996000e+00,2.959200e+00
-1.815000e-04,4.978400e+00,2.948533e+00
-1.810000e-04,4.991467e+00,2.937867e+00
-1.805000e-04,4.954134e+00,2.880267e+00
-1.800000e-04,4.921067e+00,2.848267e+00
-1.795000e-04,4.954134e+00,2.824800e+00
-1.790000e-04,5.000267e+00,2.788533e+00
-1.785000e-04,4.987200e+00,2.754400e+00
-1.780000e-04,4.969600e+00,2.724267e+00
-1.775000e-04,4.976000e+00,2.711467e+00
-1.770000e-04,4.978400e+00,2.690133e+00
-1.765000e-04,4.958400e+00,2.651733e+00
-1.760000e-04,4.929867e+00,2.604800e+00
-1.755000e-04,4.958400e+00,2.570667e+00
-1.750000e-04,5.000267e+00,2.545067e+00
-1.745000e-04,4.980534e+00,2.519467e+00
-1.740000e-04,4.978400e+00,2.502400e+00
-1.735000e-04,4.976000e+00,2.472533e+00
-1.730000e-04,4.982666e+00,2.455200e+00
-1.725000e-04,4.958400e+00,2.423200e+00
-1.720000e-04,4.907733e+00,2.361333e+00
-1.715000e-04,4.956267e+00,2.346400e+00
-1.710000e-04,4.987200e+00,2.327200e+00
-1.705000e-04,4.980534e+00,2.293067e+00
-1.700000e-04,4.978400e+00,2.263200e+00
-1.695000e-04,4.991467e+00,2.241867e+00
-1.690000e-04,4.965067e+00,2.212000e+00
-1.685000e-04,4.965067e+00,2.181867e+00
-1.680000e-04,4.929867e+00,2.126400e+00
-1.675000e-04,4.965067e+00,2.098667e+00
-1.670000e-04,4.987200e+00,2.066667e+00
-1.665000e-04,4.982666e+00,2.043200e+00
-1.660000e-04,4.960800e+00,2.036800e+00
-1.655000e-04,4.969600e+00,2.004800e+00
-1.650000e-04,4.973867e+00,1.981333e+00
-1.645000e-04,4.952000e+00,1.945067e+00
-1.640000e-04,4.934134e+00,1.912800e+00
-1.635000e-04,4.949600e+00,1.865867e+00
-1.630000e-04,4.987200e+00,1.840267e+00
-1.625000e-04,4.969600e+00,1.801867e+00
-1.620000e-04,4.987200e+00,1.784800e+00
-1.615000e-04,4.973867e+00,1.776267e+00
-1.610000e-04,4.987200e+00,1.746400e+00
-1.605000e-04,4.967200e+00,1.705867e+00
-1.600000e-04,4.938667e+00,1.656800e+00
-1.595000e-04,4.960800e+00,1.648267e+00
-1.590000e-04,5.004800e+00,1.609600e+00
-1.585000e-04,4.978400e+00,1.590400e+00
-1.580000e-04,4.960800e+00,1.584000e+00
-1.575000e-04,4.980534e+00,1.530667e+00
-1.570000e-04,4.987200e+00,1.537067e+00
-1.565000e-04,4.954134e+00,1.477333e+00
-1.560000e-04,4.929867e+00,1.451733e+00
-1.555000e-04,4.952000e+00,1.413333e+00
-1.550000e-04,4.987200e+00,1.392000e+00
-1.545000e-04,4.978400e+00,1.355467e+00
-1.540000e-04,4.965067e+00,1.340533e+00
-1.535000e-04,4.982666e+00,1.314933e+00
-1.530000e-04,4.965067e+00,1.302133e+00
-1.525000e-04,4.949600e+00,1.255467e+00
-1.520000e-04,4.916533e+00,1.200000e+00
-1.515000e-04,4.952000e+00,1.174133e+00
-1.510000e-04,4.982666e+00,1.152800e+00
-1.505000e-04,4.978400e+00,1.137867e+00
-1.500000e-04,4.956267e+00,1.097333e+00
-1.495000e-04,4.962934e+00,1.084267e+00
-1.490000e-04,4.965067e+00,1.071467e+00
-1.485000e-04,4.945333e+00,1.028800e+00
-1.480000e-04,4.925333e+00,9.861333e-01
-1.475000e-04,4.945333e+00,9.584000e-01
-1.470000e-04,4.978400e+00,9.221333e-01
-1.465000e-04,4.932000e+00,9.072000e-01
-1.460000e-04,4.665600e+00,8.752000e-01
-1.455000e-04,4.240533e+00,8.688000e-01
-1.450000e-04,3.634933e+00,8.538667e-01
-1.445000e-04,2.877600e+00,8.130667e-01
-1.440000e-04,2.133333e+00,7.938667e-01
-1.435000e-04,1.606933e+00,7.938667e-01
-1.430000e-04,1.199467e+00,7.938667e-01
-1.425000e-04,8.890667e-01,8.024000e-01
-1.420000e-04,6.621333e-01,8.368000e-01
-1.415000e-04,4.706667e-01,8.794667e-01
-1.410000e-04,3.584000e-01,9.221333e-01
-1.405000e-04,2.373333e-01,9.370667e-01
-1.400000e-04,1.248000e-01,9.520000e-01
-1.395000e-04,1.005333e-01,9.861333e-01
-1.390000e-04,8.080000e-02,1.045867e+00
-1.385000e-04,4.773333e-02,1.077867e+00
-1.380000e-04,2.373333e-02,1.110133e+00
-1.375000e-04,1.253333e-02,1.165600e+00
-1.370000e-04,-1.600000e-02,1.208267e+00
-1.365000e-04,-4.453333e-02,1.225333e+00
-1.360000e-04,-8.213334e-02,1.250933e+00
-1.355000e-04,-6.453333e-02,1.300000e+00
-1.350000e-04,-1.600000e-02,1.332000e+00
-1.345000e-04,-3.573333e-02,1.370667e+00
-1.340000e-04,-4.240000e-02,1.400533e+00
-1.335000e-04,-3.573333e-02,1.475200e+00
-1.330000e-04,-2.933333e-02,1.515733e+00
-1.325000e-04,-7.546667e-02,1.534933e+00
-1.320000e-04,-8.640000e-02,1.558400e+00
-1.315000e-04,-6.000000e-02,1.609600e+00
-1.310000e-04,-2.933333e-02,1.661067e+00
-1.305000e-04,-4.026667e-02,1.684533e+00
-1.300000e-04,-6.880000e-02,1.703733e+00
-1.295000e-04,-5.786667e-02,1.769867e+00
-1.290000e-04,-4.240000e-02,1.797600e+00
-1.285000e-04,-4.906667e-02,1.842400e+00
-1.280000e-04,-1.040000e-01,1.865867e+00
-1.275000e-04,-6.666667e-02,1.897867e+00
-1.270000e-04,-3.360000e-02,1.934400e+00
-1.265000e-04,-4.906667e-02,1.989867e+00
-1.260000e-04,-3.813333e-02,2.011200e+00
-1.255000e-04,-4.026667e-02,2.066667e+00
-1.250000e-04,-2.480000e-02,2.126400e+00
-1.245000e-04,-6.000000e-02,2.149867e+00
-1.240000e-04,-9.093334e-02,2.194933e+00
-1.235000e-04,-5.333333e-02,2.220533e+00
-1.230000e-04,-2.933333e-02,2.263200e+00
-1.225000e-04,-3.146667e-02,2.293067e+00
-1.220000e-04,-4.240000e-02,2.335733e+00
-1.215000e-04,-2.693333e-02,2.408267e+00
-1.210000e-04,-2.480000e-02,2.438133e+00
-1.205000e-04,-5.120000e-02,2.464000e+00
-1.200000e-04,-8.640000e-02,2.489600e+00
-1.195000e-04,-5.786667e-02,2.534400e+00
-1.190000e-04,-2.480000e-02,2.562133e+00
-1.185000e-04,-1.600000e-02,2.624000e+00
-1.180000e-04,-4.240000e-02,2.634667e+00
-1.175000e-04,-3.573333e-02,2.694400e+00
-1.170000e-04,-3.360000e-02,2.724267e+00
-1.165000e-04,-3.813333e-02,2.780000e+00
-1.160000e-04,-8.213334e-02,2.805600e+00
-1.155000e-04,-5.333333e-02,2.839733e+00
-1.150000e-04,-1.173333e-02,2.865333e+00
-1.145000e-04,-2.266667e-02,2.908000e+00
-1.140000e-04,-3.360000e-02,2.950667e+00
-1.135000e-04,-2.480000e-02,3.001867e+00
-1.130000e-04,-2.480000e-02,3.049067e+00
-1.125000e-04,-4.453333e-02,3.076800e+00
-1.120000e-04,-7.333333e-02,3.113067e+00
-1.115000e-04,-4.240000e-02,3.157867e+00
-1.110000e-04,-1.600000e-02,3.172800e+00
-1.105000e-04,-3.146667e-02,3.228267e+00
-1.100000e-04,-1.600000e-02,3.253867e+00
-1.095000e-04,-2.266667e-02,3.313867e+00
-1.090000e-04,-2.480000e-02,3.348000e+00
-1.085000e-04,-3.573333e-02,3.390667e+00
-1.080000e-04,-7.333333e-02,3.386400e+00
-1.075000e-04,-5.333333e-02,3.446133e+00
-1.070000e-04,-1.173333e-02,3.484533e+00
-1.065000e-04,-1.813333e-02,3.535733e+00
-1.060000e-04,-2.933333e-02,3.544267e+00
-1.055000e-04,-1.600000e-02,3.612800e+00
-1.050000e-04,-1.173333e-02,3.664000e+00
-1.045000e-04,-2.933333e-02,3.687467e+00
-1.040000e-04,-4.240000e-02,3.702400e+00
-1.035000e-04,-4.906667e-02,3.742933e+00
-1.030000e-04,1.040000e-02,3.770667e+00
-1.025000e-04,1.402667e-01,3.824000e+00
-1.020000e-04,4.640000e-01,3.847733e+00
-1.015000e-04,9.242667e-01,3.898933e+00
-1.010000e-04,1.569600e+00,3.911733e+00
-1.005000e-04,2.338133e+00,3.943733e+00
-1.000000e-04,2.992000e+00,3.920267e+00
-9.950000e-05,3.507200e+00,3.941600e+00
-9.900000e-05,3.912533e+00,3.933067e+00
-9.850000e-05,4.183467e+00,3.916000e+00
-9.800000e-05,4.388267e+00,3.890400e+00
-9.750000e-05,4.531200e+00,3.896800e+00
-9.700000e-05,4.639200e+00,3.869067e+00
-9.650000e-05,4.716267e+00,3.847733e+00
-9.600000e-05,4.758133e+00,3.792000e+00
-9.550000e-05,4.837333e+00,3.794133e+00
-9.500000e-05,4.903467e+00,3.736533e+00
-9.450000e-05,4.923200e+00,3.721600e+00
-9.400000e-05,4.916533e+00,3.693867e+00
-9.350000e-05,4.947467e+00,3.676800e+00
-9.300000e-05,4.952000e+00,3.642667e+00
-9.250000e-05,4.958400e+00,3.614933e+00
-9.200000e-05,4.921067e+00,3.570400e+00
-9.150000e-05,4.965067e+00,3.533600e+00
-9.100000e-05,5.004800e+00,3.514400e+00
-9.050000e-05,5.002400e+00,3.476267e+00
-9.000000e-05,5.000267e+00,3.450400e+00
-8.950000e-05,4.993600e+00,3.424800e+00
-8.900000e-05,4.982666e+00,3.416267e+00
-8.850000e-05,4.976000e+00,3.367200e+00
-8.800000e-05,4.934134e+00,3.330933e+00
-8.750000e-05,4.976000e+00,3.301067e+00
-8.700000e-05,5.000267e+00,3.275200e+00
-8.650000e-05,4.996000e+00,3.234667e+00
-8.600000e-05,4.987200e+00,3.206933e+00
-8.550000e-05,5.002400e+00,3.196267e+00
-8.500000e-05,4.982666e+00,3.168533e+00
-8.450000e-05,4.967200e+00,3.138667e+00
-8.400000e-05,4.960800e+00,3.091733e+00
-8.350000e-05,4.973867e+00,3.068267e+00
-8.300000e-05,5.009067e+00,3.014933e+00
-8.250000e-05,5.006933e+00,3.006133e+00
-8.200000e-05,5.004800e+00,2.976267e+00
-8.150000e-05,4.989333e+00,2.961333e+00
-8.100000e-05,4.996000e+00,2.925067e+00
-8.050000e-05,4.960800e+00,2.878133e+00
-8.000000e-05,4.934134e+00,2.856800e+00
-7.950000e-05,4.962934e+00,2.824800e+00
-7.900000e-05,4.987200e+00,2.788533e+00
-7.850000e-05,4.993600e+00,2.769333e+00
-7.800000e-05,4.987200e+00,2.711467e+00
-7.750000e-05,4.976000e+00,2.696533e+00
-7.700000e-05,4.982666e+00,2.698667e+00
-7.650000e-05,4.967200e+00,2.658133e+00
-7.600000e-05,4.938667e+00,2.604800e+00
-7.550000e-05,4.973867e+00,2.592000e+00
-7.500000e-05,5.009067e+00,2.562133e+00
-7.450000e-05,4.991467e+00,2.523733e+00
-7.400000e-05,4.960800e+00,2.502400e+00
-7.350000e-05,5.002400e+00,2.478933e+00
-7.300000e-05,4.991467e+00,2.468267e+00
-7.250000e-05,4.960800e+00,2.406133e+00
-7.200000e-05,4.925333e+00,2.369867e+00
-7.150000e-05,4.954134e+00,2.344267e+00
-7.100000e-05,4.996000e+00,2.322933e+00
-7.050000e-05,4.976000e+00,2.290933e+00
-7.000000e-05,4.982666e+00,2.250400e+00
-6.950000e-05,4.971734e+00,2.220533e+00
-6.900000e-05,4.987200e+00,2.190667e+00
-6.850000e-05,4.952000e+00,2.162667e+00
-6.800000e-05,4.929867e+00,2.139200e+00
-6.750000e-05,4.967200e+00,2.105067e+00
-6.700000e-05,4.965067e+00,2.079467e+00
-6.650000e-05,4.973867e+00,2.047467e+00
-6.600000e-05,4.973867e+00,2.015467e+00
-6.550000e-05,4.984800e+00,1.998400e+00
-6.500000e-05,4.965067e+00,1.964267e+00
-6.450000e-05,4.954134e+00,1.934400e+00
-6.400000e-05,4.912267e+00,1.878667e+00
-6.350000e-05,4.949600e+00,1.885067e+00
-6.300000e-05,4.982666e+00,1.861600e+00
-6.250000e-05,4.978400e+00,1.814667e+00
-6.200000e-05,4.960800e+00,1.793333e+00
-6.150000e-05,4.976000e+00,1.767733e+00
-6.100000e-05,4.960800e+00,1.750667e+00
-6.050000e-05,4.949600e+00,1.714400e+00
-6.000000e-05,4.912267e+00,1.665333e+00
-5.950000e-05,4.940800e+00,1.644000e+00
-5.900000e-05,4.973867e+00,1.609600e+00
-5.850000e-05,4.971734e+00,1.581867e+00
-5.800000e-05,4.969600e+00,1.558400e+00
-5.750000e-05,4.980534e+00,1.526400e+00
-5.700000e-05,4.982666e+00,1.528533e+00
-5.650000e-05,4.956267e+00,1.473067e+00
-5.600000e-05,4.921067e+00,1.421867e+00
-5.550000e-05,4.945333e+00,1.415467e+00
-5.500000e-05,4.978400e+00,1.383467e+00
-5.450000e-05,4.973867e+00,1.368533e+00
-5.400000e-05,4.978400e+00,1.319200e+00
-5.350000e-05,4.965067e+00,1.323467e+00
-5.300000e-05,4.982666e+00,1.293600e+00
-5.250000e-05,4.954134e+00,1.242400e+00
-5.200000e-05,4.921067e+00,1.212533e+00
-5.150000e-05,4.965067e+00,1.186933e+00
-5.100000e-05,4.973867e+00,1.161333e+00
-5.050000e-05,4.980534e+00,1.135733e+00
-5.000000e-05,4.978400e+00,1.097333e+00
-4.950000e-05,4.989333e+00,1.097333e+00
-4.900000e-05,4.982666e+00,1.062933e+00
-4.850000e-05,4.954134e+00,1.033067e+00
-4.800000e-05,4.921067e+00,9.904000e-01
-4.750000e-05,4.960800e+00,9.605333e-01
-4.700000e-05,4.978400e+00,9.434667e-01
-4.650000e-05,4.936533e+00,8.965334e-01
-4.600000e-05,4.665600e+00,8.880000e-01
-4.550000e-05,4.183467e+00,8.602667e-01
-4.500000e-05,3.577867e+00,8.453333e-01
-4.450000e-05,2.822400e+00,8.218667e-01
-4.400000e-05,2.080267e+00,7.896000e-01
-4.350000e-05,1.578400e+00,7.917333e-01
-4.300000e-05,1.181867e+00,7.981333e-01
-4.250000e-05,8.736000e-01,8.130667e-01
-4.200000e-05,6.533334e-01,8.410667e-01
-4.150000e-05,4.749333e-01,8.773333e-01
-4.100000e-05,3.450667e-01,9.221333e-01
-4.050000e-05,2.261333e-01,9.392000e-01
-4.000000e-05,1.072000e-01,9.605333e-01
-3.950000e-05,1.138667e-01,1.007467e+00
-3.900000e-05,8.960000e-02,1.033067e+00
-3.850000e-05,4.133333e-02,1.069333e+00
-3.800000e-05,1.920000e-02,1.101600e+00
-3.750000e-05,2.133333e-02,1.159200e+00
-3.700000e-05,1.040000e-02,1.195467e+00
-3.650000e-05,-3.813333e-02,1.248800e+00
-3.600000e-05,-8.640000e-02,1.242400e+00
-3.550000e-05,-5.333333e-02,1.289333e+00
-3.500000e-05,-2.480000e-02,1.323467e+00
-3.450000e-05,-3.573333e-02,1.372800e+00
-3.400000e-05,-2.933333e-02,1.409067e+00
-3.350000e-05,-2.933333e-02,1.462400e+00
-3.300000e-05,-3.360000e-02,1.507200e+00
-3.250000e-05,-6.880000e-02,1.526400e+00
-3.200000e-05,-8.213334e-02,1.554133e+00
-3.150000e-05,-5.333333e-02,1.598933e+00
-3.100000e-05,-3.360000e-02,1.618133e+00
-3.050000e-05,-5.786667e-02,1.678133e+00
-3.000000e-05,-4.240000e-02,1.725067e+00
-2.950000e-05,-4.693333e-02,1.759200e+00
-2.900000e-05,-4.693333e-02,1.818933e+00
-2.850000e-05,-6.880000e-02,1.844533e+00
-2.800000e-05,-9.093334e-02,1.882933e+00
-2.750000e-05,-6.213333e-02,1.906400e+00
-2.700000e-05,-3.360000e-02,1.955733e+00
-2.650000e-05,-4.026667e-02,1.987733e+00
-2.600000e-05,-4.666667e-02,2.024000e+00
-2.550000e-05,-2.480000e-02,2.083733e+00
-2.500000e-05,-3.360000e-02,2.130667e+00
-2.450000e-05,-6.880000e-02,2.169067e+00
-2.400000e-05,-6.000000e-02,2.173333e+00
-2.350000e-05,-5.120000e-02,2.216267e+00
-2.300000e-05,-2.480000e-02,2.267467e+00
-2.250000e-05,-3.813333e-02,2.299467e+00
-2.200000e-05,-3.813333e-02,2.331467e+00
-2.150000e-05,-3.146667e-02,2.401867e+00
-2.100000e-05,-2.480000e-02,2.455200e+00
-2.050000e-05,-6.453333e-02,2.468267e+00
-2.000000e-05,-7.333333e-02,2.489600e+00
-1.950000e-05,-7.333333e-02,2.515200e+00
-1.900000e-05,-4.240000e-02,2.579200e+00
-1.850000e-05,-4.453333e-02,2.604800e+00
-1.800000e-05,-3.360000e-02,2.647467e+00
-1.750000e-05,-2.693333e-02,2.696533e+00
-1.700000e-05,-2.053333e-02,2.750133e+00
-1.650000e-05,-5.573333e-02,2.771467e+00
-1.600000e-05,-8.640000e-02,2.788533e+00
-1.550000e-05,-5.333333e-02,2.831200e+00
-1.500000e-05,-4.240000e-02,2.886667e+00
-1.450000e-05,-2.933333e-02,2.910133e+00
-1.400000e-05,-5.120000e-02,2.959200e+00
-1.350000e-05,-2.266667e-02,2.993333e+00
-1.300000e-05,-2.933333e-02,3.049067e+00
-1.250000e-05,-5.333333e-02,3.055467e+00
-1.200000e-05,-8.640000e-02,3.091733e+00
-1.150000e-05,-5.120000e-02,3.130133e+00
-1.100000e-05,-4.693333e-02,3.172800e+00
-1.050000e-05,-2.480000e-02,3.213333e+00
-1.000000e-05,-2.933333e-02,3.249600e+00
-9.500000e-06,-3.360000e-02,3.292533e+00
-9.000000e-06,-1.600000e-02,3.335200e+00
-8.500000e-06,-4.240000e-02,3.356800e+00
-8.000000e-06,-8.640000e-02,3.394933e+00
-7.500000e-06,-4.240000e-02,3.446133e+00
-7.000000e-06,-1.173333e-02,3.480267e+00
-6.500000e-06,-2.693333e-02,3.505867e+00
-6.000000e-06,-3.813333e-02,3.544267e+00
-5.500000e-06,-2.480000e-02,3.587200e+00
-5.000000e-06,-1.600000e-02,3.646933e+00
-4.500000e-06,-3.146667e-02,3.664000e+00
-4.000000e-06,-8.640000e-02,3.693867e+00
-3.500000e-06,-4.693333e-02,3.732267e+00
